# time(ms)  distance  kmc-step
                 0.00010       -31          1000
                 0.00020       -52          2000
                 0.00030       -90          3000
                 0.00040      -107          4000
                 0.00050      -126          5000
                 0.00060      -136          6000
                 0.00070      -151          7000
                 0.00080      -166          8000
                 0.00090      -180          9000
                 0.00100      -207         10000
                 0.00110      -232         11000
                 0.00120      -251         12000
                 0.00130      -268         13000
                 0.00140      -281         14000
                 0.00150      -318         15000
                 0.00160      -349         16000
                 0.00170      -362         17000
                 0.00180      -379         18000
                 0.00190      -391         19000
                 0.00200      -407         20000
                 0.00210      -425         21000
                 0.00220      -443         22000
                 0.00230      -465         23000
                 0.00240      -495         24000
                 0.00250      -519         25000
                 0.00260      -553         26000
                 0.00270      -557         27000
                 0.00280      -573         28000
                 0.00290      -593         29000
                 0.00300      -625         30000
                 0.00310      -664         31000
                 0.00320      -707         32000
                 0.00330      -724         33000
                 0.00340      -741         34000
                 0.00350      -768         35000
                 0.00360      -789         36000
                 0.00370      -819         37000
                 0.00380      -849         38000
                 0.00390      -852         39000
                 0.00400      -888         40000
                 0.00410      -889         41000
                 0.00420      -908         42000
                 0.00430      -941         43000
                 0.00440      -955         44000
                 0.00450      -979         45000
                 0.00460      -999         46000
                 0.00470     -1033         47000
                 0.00480     -1050         48000
                 0.00490     -1073         49000
                 0.00500     -1099         50000
                 0.00510     -1126         51000
                 0.00520     -1143         52000
                 0.00530     -1176         53000
                 0.00540     -1198         54000
                 0.00550     -1216         55000
                 0.00560     -1243         56000
                 0.00570     -1271         57000
                 0.00580     -1294         58000
                 0.00590     -1317         59000
                 0.00600     -1335         60000
                 0.00610     -1352         61000
                 0.00620     -1354         62000
                 0.00630     -1386         63000
                 0.00640     -1403         64000
                 0.00650     -1425         65000
                 0.00660     -1439         66000
                 0.00670     -1449         67000
                 0.00680     -1474         68000
                 0.00690     -1486         69000
                 0.00700     -1503         70000
                 0.00710     -1533         71000
                 0.00720     -1557         72000
                 0.00730     -1590         73000
                 0.00740     -1625         74000
                 0.00750     -1649         75000
                 0.00760     -1675         76000
                 0.00770     -1695         77000
                 0.00780     -1703         78000
                 0.00790     -1744         79000
                 0.00800     -1764         80000
                 0.00810     -1788         81000
                 0.00820     -1830         82000
                 0.00830     -1856         83000
                 0.00840     -1875         84000
                 0.00850     -1905         85000
                 0.00860     -1931         86000
                 0.00870     -1961         87000
                 0.00880     -1982         88000
                 0.00890     -2016         89000
                 0.00900     -2020         90000
                 0.00910     -2054         91000
                 0.00920     -2059         92000
                 0.00930     -2070         93000
                 0.00940     -2094         94000
                 0.00950     -2117         95000
                 0.00960     -2137         96000
                 0.00970     -2144         97000
                 0.00980     -2167         98000
                 0.00990     -2174         99000
                 0.01000     -2192        100000
                 0.01010     -2215        101000
                 0.01020     -2240        102000
                 0.01030     -2249        103000
                 0.01040     -2262        104000
                 0.01050     -2265        105000
                 0.01060     -2278        106000
                 0.01070     -2296        107000
                 0.01080     -2327        108000
                 0.01090     -2338        109000
                 0.01100     -2358        110000
                 0.01110     -2374        111000
                 0.01120     -2388        112000
                 0.01130     -2410        113000
                 0.01140     -2439        114000
                 0.01150     -2456        115000
                 0.01160     -2471        116000
                 0.01170     -2497        117000
                 0.01180     -2521        118000
                 0.01190     -2538        119000
                 0.01200     -2548        120000
                 0.01210     -2552        121000
                 0.01220     -2563        122000
                 0.01230     -2573        123000
                 0.01240     -2597        124000
                 0.01250     -2605        125000
                 0.01260     -2626        126000
                 0.01270     -2637        127000
                 0.01280     -2652        128000
                 0.01290     -2663        129000
                 0.01300     -2702        130000
                 0.01310     -2714        131000
                 0.01320     -2726        132000
                 0.01330     -2730        133000
                 0.01340     -2764        134000
                 0.01350     -2789        135000
                 0.01360     -2796        136000
                 0.01370     -2808        137000
                 0.01380     -2831        138000
                 0.01390     -2842        139000
                 0.01400     -2858        140000
                 0.01410     -2871        141000
                 0.01420     -2888        142000
                 0.01430     -2937        143000
                 0.01440     -2951        144000
                 0.01450     -2962        145000
                 0.01460     -2959        146000
                 0.01470     -2984        147000
                 0.01480     -3012        148000
                 0.01490     -3017        149000
                 0.01500     -3037        150000
                 0.01510     -3021        151000
                 0.01520     -3043        152000
                 0.01530     -3060        153000
                 0.01540     -3063        154000
                 0.01550     -3081        155000
                 0.01560     -3101        156000
                 0.01570     -3117        157000
                 0.01580     -3137        158000
                 0.01590     -3147        159000
                 0.01600     -3168        160000
                 0.01610     -3192        161000
                 0.01620     -3207        162000
                 0.01630     -3229        163000
                 0.01640     -3215        164000
                 0.01650     -3216        165000
                 0.01660     -3213        166000
                 0.01670     -3231        167000
                 0.01680     -3231        168000
                 0.01690     -3241        169000
                 0.01700     -3263        170000
                 0.01710     -3271        171000
                 0.01720     -3276        172000
                 0.01730     -3283        173000
                 0.01740     -3308        174000
                 0.01750     -3322        175000
                 0.01760     -3351        176000
                 0.01770     -3373        177000
                 0.01780     -3374        178000
                 0.01790     -3379        179000
                 0.01800     -3395        180000
                 0.01810     -3413        181000
                 0.01820     -3420        182000
                 0.01830     -3417        183000
                 0.01840     -3426        184000
                 0.01850     -3426        185000
                 0.01860     -3430        186000
                 0.01870     -3442        187000
                 0.01880     -3448        188000
                 0.01890     -3458        189000
                 0.01900     -3459        190000
                 0.01910     -3452        191000
                 0.01920     -3443        192000
                 0.01930     -3429        193000
                 0.01940     -3434        194000
                 0.01950     -3427        195000
                 0.01960     -3430        196000
                 0.01970     -3448        197000
                 0.01980     -3461        198000
                 0.01990     -3479        199000
                 0.02000     -3498        200000
                 0.02010     -3530        201000
                 0.02020     -3531        202000
                 0.02030     -3538        203000
                 0.02040     -3536        204000
                 0.02050     -3528        205000
                 0.02060     -3549        206000
                 0.02070     -3543        207000
                 0.02080     -3540        208000
                 0.02090     -3535        209000
                 0.02100     -3546        210000
                 0.02110     -3558        211000
                 0.02120     -3564        212000
                 0.02130     -3581        213000
                 0.02140     -3572        214000
                 0.02150     -3577        215000
                 0.02160     -3564        216000
                 0.02170     -3580        217000
                 0.02180     -3581        218000
                 0.02190     -3575        219000
                 0.02200     -3569        220000
                 0.02210     -3568        221000
                 0.02220     -3556        222000
                 0.02230     -3565        223000
                 0.02240     -3577        224000
                 0.02250     -3585        225000
                 0.02260     -3596        226000
                 0.02270     -3599        227000
                 0.02280     -3601        228000
                 0.02290     -3599        229000
                 0.02300     -3606        230000
                 0.02310     -3637        231000
                 0.02320     -3648        232000
                 0.02330     -3642        233000
                 0.02340     -3644        234000
                 0.02350     -3628        235000
                 0.02360     -3645        236000
                 0.02370     -3654        237000
                 0.02380     -3654        238000
                 0.02390     -3666        239000
                 0.02400     -3674        240000
                 0.02410     -3666        241000
                 0.02420     -3656        242000
                 0.02430     -3669        243000
                 0.02440     -3675        244000
                 0.02450     -3677        245000
                 0.02460     -3671        246000
                 0.02470     -3688        247000
                 0.02480     -3694        248000
                 0.02490     -3702        249000
                 0.02500     -3697        250000
                 0.02510     -3694        251000
                 0.02520     -3704        252000
                 0.02530     -3698        253000
                 0.02540     -3696        254000
                 0.02550     -3677        255000
                 0.02560     -3672        256000
                 0.02570     -3673        257000
                 0.02580     -3657        258000
                 0.02590     -3684        259000
                 0.02600     -3682        260000
                 0.02610     -3677        261000
                 0.02620     -3681        262000
                 0.02630     -3678        263000
                 0.02640     -3672        264000
                 0.02650     -3676        265000
                 0.02660     -3669        266000
                 0.02670     -3659        267000
                 0.02680     -3648        268000
                 0.02690     -3620        269000
                 0.02700     -3633        270000
                 0.02710     -3617        271000
                 0.02720     -3626        272000
                 0.02730     -3623        273000
                 0.02740     -3607        274000
                 0.02750     -3614        275000
                 0.02760     -3636        276000
                 0.02770     -3633        277000
                 0.02780     -3622        278000
                 0.02790     -3614        279000
                 0.02800     -3599        280000
                 0.02810     -3591        281000
                 0.02820     -3583        282000
                 0.02830     -3581        283000
                 0.02840     -3558        284000
                 0.02850     -3553        285000
                 0.02860     -3560        286000
                 0.02870     -3566        287000
                 0.02880     -3572        288000
                 0.02890     -3562        289000
                 0.02900     -3570        290000
                 0.02910     -3569        291000
                 0.02920     -3555        292000
                 0.02930     -3561        293000
                 0.02940     -3545        294000
                 0.02950     -3544        295000
                 0.02960     -3533        296000
                 0.02970     -3526        297000
                 0.02980     -3519        298000
                 0.02990     -3508        299000
                 0.03000     -3520        300000
                 0.03010     -3513        301000
                 0.03020     -3494        302000
                 0.03030     -3496        303000
                 0.03040     -3487        304000
                 0.03050     -3475        305000
                 0.03060     -3469        306000
                 0.03070     -3459        307000
                 0.03080     -3441        308000
                 0.03090     -3426        309000
                 0.03100     -3408        310000
                 0.03110     -3409        311000
                 0.03120     -3405        312000
                 0.03130     -3415        313000
                 0.03140     -3407        314000
                 0.03150     -3399        315000
                 0.03160     -3384        316000
                 0.03170     -3379        317000
                 0.03180     -3366        318000
                 0.03190     -3342        319000
                 0.03200     -3331        320000
                 0.03210     -3306        321000
                 0.03220     -3288        322000
                 0.03230     -3282        323000
                 0.03240     -3271        324000
                 0.03250     -3256        325000
                 0.03260     -3237        326000
                 0.03270     -3236        327000
                 0.03280     -3238        328000
                 0.03290     -3212        329000
                 0.03300     -3225        330000
                 0.03310     -3205        331000
                 0.03320     -3192        332000
                 0.03330     -3171        333000
                 0.03340     -3150        334000
                 0.03350     -3117        335000
                 0.03360     -3104        336000
                 0.03370     -3110        337000
                 0.03380     -3107        338000
                 0.03390     -3114        339000
                 0.03400     -3096        340000
                 0.03410     -3077        341000
                 0.03420     -3077        342000
                 0.03430     -3046        343000
                 0.03440     -3026        344000
                 0.03450     -3017        345000
                 0.03460     -3014        346000
                 0.03470     -2992        347000
                 0.03480     -2983        348000
                 0.03490     -2979        349000
                 0.03500     -2952        350000
                 0.03510     -2936        351000
                 0.03520     -2900        352000
                 0.03530     -2866        353000
                 0.03540     -2859        354000
                 0.03550     -2852        355000
                 0.03560     -2835        356000
                 0.03570     -2815        357000
                 0.03580     -2807        358000
                 0.03590     -2798        359000
                 0.03600     -2783        360000
                 0.03610     -2764        361000
                 0.03620     -2741        362000
                 0.03630     -2729        363000
                 0.03640     -2700        364000
                 0.03650     -2690        365000
                 0.03660     -2693        366000
                 0.03670     -2671        367000
                 0.03680     -2650        368000
                 0.03690     -2638        369000
                 0.03700     -2623        370000
                 0.03710     -2589        371000
                 0.03720     -2577        372000
                 0.03730     -2566        373000
                 0.03740     -2540        374000
                 0.03750     -2517        375000
                 0.03760     -2502        376000
                 0.03770     -2480        377000
                 0.03780     -2450        378000
                 0.03790     -2448        379000
                 0.03800     -2420        380000
                 0.03810     -2397        381000
                 0.03820     -2369        382000
                 0.03830     -2355        383000
                 0.03840     -2323        384000
                 0.03850     -2313        385000
                 0.03860     -2300        386000
                 0.03870     -2282        387000
                 0.03880     -2251        388000
                 0.03890     -2249        389000
                 0.03900     -2221        390000
                 0.03910     -2214        391000
                 0.03920     -2203        392000
                 0.03930     -2180        393000
                 0.03940     -2137        394000
                 0.03950     -2115        395000
                 0.03960     -2121        396000
                 0.03970     -2106        397000
                 0.03980     -2083        398000
                 0.03990     -2081        399000
                 0.04000     -2057        400000
                 0.04010     -2057        401000
                 0.04020     -2009        402000
                 0.04030     -1984        403000
                 0.04040     -1976        404000
                 0.04050     -1958        405000
                 0.04060     -1938        406000
                 0.04070     -1926        407000
