# time(ms)  distance  kmc-step
                 0.00081        -2          1000
                 0.00161       -76          2000
                 0.00240      -118          3000
                 0.00320      -204          4000
                 0.00396      -282          5000
                 0.00477      -284          6000
                 0.00559      -362          7000
                 0.00639      -420          8000
                 0.00718      -516          9000
                 0.00795      -600         10000
                 0.00872      -728         11000
                 0.00955      -822         12000
                 0.01030      -928         13000
                 0.01114     -1046         14000
                 0.01196     -1166         15000
                 0.01276     -1306         16000
                 0.01360     -1444         17000
                 0.01439     -1552         18000
                 0.01512     -1704         19000
                 0.01591     -1868         20000
                 0.01669     -1984         21000
                 0.01747     -2160         22000
                 0.01825     -2322         23000
                 0.01902     -2438         24000
                 0.01981     -2578         25000
                 0.02061     -2752         26000
                 0.02142     -2916         27000
                 0.02223     -3140         28000
                 0.02302     -3336         29000
                 0.02378     -3530         30000
                 0.02454     -3720         31000
                 0.02532     -3914         32000
                 0.02614     -4148         33000
                 0.02692     -4356         34000
                 0.02770     -4568         35000
                 0.02849     -4734         36000
                 0.02927     -4904         37000
                 0.03001     -5026         38000
                 0.03080     -5174         39000
                 0.03156     -5322         40000
                 0.03233     -5532         41000
                 0.03312     -5700         42000
                 0.03386     -5848         43000
                 0.03467     -5940         44000
                 0.03549     -6122         45000
                 0.03629     -6246         46000
                 0.03709     -6366         47000
                 0.03788     -6532         48000
                 0.03867     -6682         49000
                 0.03947     -6792         50000
                 0.04028     -6862         51000
                 0.04107     -6942         52000
                 0.04181     -6982         53000
                 0.04258     -7076         54000
                 0.04336     -7258         55000
                 0.04413     -7304         56000
                 0.04491     -7336         57000
                 0.04569     -7360         58000
                 0.04646     -7408         59000
                 0.04724     -7412         60000
                 0.04804     -7410         61000
                 0.04888     -7386         62000
                 0.04967     -7342         63000
                 0.05043     -7348         64000
                 0.05122     -7348         65000
                 0.05196     -7354         66000
                 0.05273     -7280         67000
                 0.05352     -7270         68000
                 0.05434     -7212         69000
                 0.05510     -7240         70000
                 0.05585     -7132         71000
                 0.05666     -7076         72000
                 0.05749     -7000         73000
                 0.05829     -6928         74000
                 0.05911     -6820         75000
                 0.05995     -6692         76000
                 0.06073     -6604         77000
                 0.06150     -6502         78000
                 0.06231     -6334         79000
                 0.06311     -6234         80000
                 0.06390     -6122         81000
                 0.06465     -5954         82000
                 0.06541     -5792         83000
                 0.06620     -5636         84000
                 0.06698     -5472         85000
                 0.06779     -5330         86000
                 0.06860     -5124         87000
                 0.06931     -4932         88000
                 0.07007     -4740         89000
                 0.07087     -4556         90000
                 0.07163     -4348         91000
                 0.07239     -4170         92000
                 0.07317     -4002         93000
                 0.07392     -3830         94000
                 0.07472     -3654         95000
                 0.07549     -3484         96000
                 0.07626     -3294         97000
                 0.07701     -3058         98000
                 0.07778     -2916         99000
                 0.07851     -2766        100000
                 0.07930     -2508        101000
                 0.08006     -2292        102000
                 0.08080     -2110        103000
                 0.08158     -1954        104000
                 0.08237     -1764        105000
                 0.08316     -1600        106000
                 0.08397     -1434        107000
                 0.08472     -1260        108000
                 0.08548     -1120        109000
                 0.08628      -996        110000
                 0.08704      -818        111000
                 0.08785      -672        112000
                 0.08865      -506        113000
                 0.08941      -350        114000
                 0.09021      -266        115000
                 0.09101      -150        116000
                 0.09179       -44        117000
                 0.09256        76        118000
                 0.09336       162        119000
                 0.09416       252        120000
                 0.09497       268        121000
                 0.09576       366        122000
                 0.09650       406        123000
                 0.09729       416        124000
                 0.09807       452        125000
                 0.09882       476        126000
                 0.09965       516        127000
                 0.10040       500        128000
                 0.10119       474        129000
                 0.10199       398        130000
                 0.10279       378        131000
                 0.10362       302        132000
                 0.10443       280        133000
                 0.10522       260        134000
                 0.10605       204        135000
                 0.10688       116        136000
                 0.10766        52        137000
                 0.10841       -70        138000
                 0.10917      -144        139000
                 0.10996      -250        140000
                 0.11072      -378        141000
                 0.11150      -504        142000
                 0.11224      -618        143000
                 0.11302      -744        144000
                 0.11383      -934        145000
                 0.11462     -1088        146000
                 0.11540     -1230        147000
                 0.11616     -1406        148000
                 0.11697     -1558        149000
                 0.11777     -1708        150000
                 0.11857     -1874        151000
                 0.11936     -2040        152000
                 0.12013     -2186        153000
                 0.12093     -2360        154000
                 0.12171     -2552        155000
                 0.12251     -2768        156000
                 0.12326     -3008        157000
                 0.12401     -3228        158000
                 0.12480     -3390        159000
                 0.12557     -3548        160000
                 0.12633     -3760        161000
                 0.12712     -3984        162000
                 0.12786     -4230        163000
                 0.12867     -4438        164000
                 0.12944     -4624        165000
                 0.13022     -4752        166000
                 0.13100     -4890        167000
                 0.13180     -5036        168000
                 0.13258     -5242        169000
                 0.13333     -5448        170000
                 0.13411     -5560        171000
                 0.13486     -5722        172000
                 0.13562     -5910        173000
                 0.13640     -6054        174000
                 0.13719     -6136        175000
                 0.13795     -6236        176000
                 0.13868     -6378        177000
                 0.13943     -6426        178000
                 0.14024     -6520        179000
                 0.14106     -6672        180000
                 0.14189     -6768        181000
                 0.14264     -6870        182000
                 0.14344     -6942        183000
                 0.14422     -7072        184000
                 0.14498     -7204        185000
                 0.14579     -7236        186000
                 0.14659     -7252        187000
                 0.14739     -7296        188000
                 0.14819     -7294        189000
                 0.14899     -7342        190000
                 0.14980     -7366        191000
                 0.15055     -7302        192000
                 0.15135     -7292        193000
                 0.15216     -7282        194000
                 0.15295     -7228        195000
                 0.15374     -7200        196000
                 0.15453     -7116        197000
                 0.15531     -7042        198000
                 0.15612     -6976        199000
                 0.15691     -6944        200000
                 0.15773     -6846        201000
                 0.15851     -6816        202000
                 0.15933     -6704        203000
                 0.16010     -6636        204000
                 0.16088     -6546        205000
                 0.16172     -6494        206000
                 0.16250     -6322        207000
                 0.16329     -6178        208000
                 0.16408     -6034        209000
                 0.16485     -5914        210000
                 0.16566     -5752        211000
                 0.16640     -5602        212000
                 0.16713     -5424        213000
                 0.16790     -5256        214000
                 0.16868     -5078        215000
                 0.16946     -4882        216000
                 0.17023     -4678        217000
                 0.17102     -4510        218000
                 0.17179     -4344        219000
                 0.17259     -4162        220000
                 0.17335     -3946        221000
                 0.17409     -3772        222000
                 0.17488     -3580        223000
                 0.17563     -3334        224000
                 0.17643     -3188        225000
                 0.17720     -3046        226000
                 0.17796     -2888        227000
                 0.17874     -2646        228000
                 0.17954     -2524        229000
                 0.18033     -2380        230000
                 0.18111     -2192        231000
                 0.18186     -2018        232000
                 0.18261     -1846        233000
                 0.18338     -1672        234000
                 0.18418     -1548        235000
                 0.18495     -1390        236000
                 0.18573     -1216        237000
                 0.18650     -1056        238000
                 0.18731      -940        239000
                 0.18806      -758        240000
                 0.18886      -676        241000
                 0.18965      -596        242000
                 0.19044      -438        243000
                 0.19124      -332        244000
                 0.19201      -216        245000
                 0.19277      -156        246000
                 0.19358       -82        247000
                 0.19438       -30        248000
                 0.19521         0        249000
                 0.19600        10        250000
                 0.19677        56        251000
                 0.19760        68        252000
                 0.19839        50        253000
                 0.19922       112        254000
                 0.20001       114        255000
                 0.20079       156        256000
                 0.20154       106        257000
                 0.20230       102        258000
                 0.20309        62        259000
                 0.20388       -48        260000
                 0.20470      -138        261000
                 0.20548      -130        262000
                 0.20630      -192        263000
                 0.20710      -310        264000
                 0.20786      -334        265000
                 0.20866      -440        266000
                 0.20948      -538        267000
                 0.21024      -696        268000
                 0.21104      -750        269000
                 0.21180      -922        270000
                 0.21255     -1056        271000
                 0.21333     -1218        272000
                 0.21413     -1368        273000
                 0.21492     -1566        274000
                 0.21567     -1740        275000
                 0.21649     -1890        276000
                 0.21727     -2054        277000
                 0.21806     -2148        278000
                 0.21882     -2346        279000
                 0.21961     -2548        280000
                 0.22041     -2738        281000
                 0.22117     -2910        282000
                 0.22195     -3130        283000
                 0.22270     -3330        284000
                 0.22349     -3606        285000
                 0.22429     -3812        286000
                 0.22505     -3998        287000
                 0.22581     -4236        288000
                 0.22661     -4448        289000
                 0.22739     -4618        290000
                 0.22818     -4778        291000
                 0.22896     -4950        292000
                 0.22973     -5230        293000
                 0.23049     -5442        294000
                 0.23127     -5612        295000
                 0.23205     -5800        296000
                 0.23278     -5944        297000
                 0.23355     -6114        298000
                 0.23431     -6262        299000
                 0.23511     -6396        300000
                 0.23591     -6578        301000
                 0.23670     -6712        302000
                 0.23751     -6840        303000
                 0.23826     -7020        304000
                 0.23907     -7134        305000
                 0.23981     -7272        306000
                 0.24065     -7358        307000
                 0.24141     -7422        308000
                 0.24221     -7544        309000
                 0.24298     -7600        310000
                 0.24381     -7724        311000
                 0.24455     -7750        312000
                 0.24532     -7852        313000
                 0.24611     -7934        314000
                 0.24693     -7972        315000
                 0.24775     -8054        316000
                 0.24856     -8114        317000
                 0.24936     -8078        318000
                 0.25019     -8070        319000
                 0.25097     -8076        320000
                 0.25169     -8118        321000
                 0.25250     -8082        322000
                 0.25328     -8000        323000
                 0.25406     -7972        324000
                 0.25481     -7960        325000
                 0.25559     -7950        326000
                 0.25642     -7898        327000
                 0.25722     -7816        328000
                 0.25805     -7670        329000
                 0.25886     -7562        330000
                 0.25970     -7506        331000
                 0.26047     -7372        332000
                 0.26125     -7252        333000
                 0.26201     -7126        334000
                 0.26280     -6990        335000
                 0.26357     -6818        336000
                 0.26436     -6684        337000
                 0.26512     -6542        338000
                 0.26596     -6426        339000
                 0.26677     -6250        340000
                 0.26752     -6150        341000
                 0.26829     -5994        342000
                 0.26905     -5794        343000
                 0.26980     -5610        344000
                 0.27057     -5404        345000
                 0.27136     -5240        346000
                 0.27211     -5056        347000
                 0.27292     -4848        348000
                 0.27372     -4654        349000
                 0.27451     -4462        350000
                 0.27531     -4296        351000
                 0.27609     -4194        352000
                 0.27686     -3938        353000
                 0.27762     -3704        354000
                 0.27842     -3518        355000
                 0.27918     -3314        356000
                 0.27999     -3118        357000
                 0.28075     -2932        358000
                 0.28152     -2728        359000
                 0.28224     -2524        360000
                 0.28306     -2290        361000
                 0.28392     -2092        362000
                 0.28477     -1934        363000
                 0.28558     -1770        364000
                 0.28638     -1618        365000
                 0.28719     -1556        366000
                 0.28796     -1392        367000
                 0.28881     -1278        368000
                 0.28961     -1142        369000
                 0.29040     -1032        370000
                 0.29116      -906        371000
                 0.29196      -830        372000
                 0.29271      -768        373000
                 0.29355      -706        374000
                 0.29437      -616        375000
                 0.29515      -560        376000
                 0.29595      -462        377000
                 0.29678      -406        378000
                 0.29753      -340        379000
                 0.29831      -310        380000
                 0.29905      -266        381000
                 0.29981      -260        382000
                 0.30056      -288        383000
                 0.30137      -362        384000
                 0.30213      -382        385000
                 0.30291      -362        386000
                 0.30373      -404        387000
                 0.30450      -406        388000
                 0.30525      -472        389000
                 0.30605      -494        390000
                 0.30685      -570        391000
                 0.30759      -644        392000
                 0.30835      -794        393000
                 0.30912      -884        394000
                 0.30988     -1008        395000
                 0.31066     -1120        396000
                 0.31143     -1248        397000
                 0.31222     -1380        398000
                 0.31301     -1556        399000
                 0.31378     -1718        400000
                 0.31459     -1888        401000
                 0.31535     -2060        402000
                 0.31610     -2262        403000
                 0.31686     -2478        404000
                 0.31764     -2650        405000
                 0.31841     -2814        406000
                 0.31913     -2984        407000
